# Column 0: Emin [MeV]  
# Column 1: Emax [MeV]  
# Column 2: E^2 times Differential Flux Sensitivity [erg cm^{-2} s^{-1}] 
# Column 3: E^2 times Differential Flux Sensitivity Error [erg cm^{-2} s^{-1}]  

31.6227766017   56.234132519    1.90007037122e-11   0  
56.234132519    100.0           1.54985571981e-11   0  
100.0           177.827941004   1.3020783252e-11    0  
177.827941004   316.227766017   1.14927854223e-11   0  
316.227766017   562.34132519    9.3513045592e-12    0  
562.34132519    1000.0          7.2537777468e-12    0  
1000.0          1778.27941004	5.47640918717e-12   0  
1778.27941004   3162.27766017   4.18577751554e-12   0  
3162.27766017   5623.4132519    3.54280524596e-12   0  
5623.4132519    10000.0   	2.73084566128e-12   0  
10000.0         17782.7941004   2.49204200436e-12   0  
17782.7941004   31622.7766017   2.56650640354e-12   0  
31622.7766017   56234.132519   	2.94382733299e-12   0  
56234.132519    100000.0   	3.80183361106e-12   0  
100000.0        177827.941004   5.2426413181e-12    0  
177827.941004   316227.766017   9.09229737311e-12   0  
316227.766017   562341.32519   	1.6304924572e-11    0  
562341.32519    1000000.0   	3.0439898185e-11    0  
